478.0
502.0
504.0
398.0
480.0
475.0
513.0
504.0
494.0
397.0
458.0
467.0
483.0
500.0
424.0
504.0
562.0
503.0
475.0
572.0
462.0
477.0
502.0
595.0
430.0
576.0
572.0
395.0
481.0
480.0
480.0
500.0
574.0
492.0
571.0
383.0
642.0
678.0
500.0
493.0
381.0
383.0
403.0
487.0
460.0
504.0
505.0
508.0
568.0
514.0
494.0
433.0
456.0
493.0
584.0
463.0
556.0
503.0
485.0
516.0
509.0
610.0
505.0
506.0
588.0
508.0
464.0
497.0
435.0
529.0
433.0
505.0
506.0
515.0
510.0
516.0
504.0
496.0
508.0
509.0
492.0
488.0
490.0
502.0
552.0
508.0
440.0
440.0
513.0
511.0
560.0
490.0
490.0
443.0
558.0
561.0
554.0
554.0
558.0
560.0
561.0
560.0
555.0
456.0
456.0
554.0
491.0
611.0
540.0
560.0
380.0
379.0
381.0
383.0
434.0
433.0
463.0
495.0
497.0
506.0
512.0
574.0
466.0
496.0
589.0
488.0
402.0
403.0
487.0
642.0
674.0
506.0
552.0
559.0
559.0
592.0
605.0
513.0
514.0
507.0
398.0
501.0
508.0
505.0
490.0
569.0
499.0
580.0
571.0
566.0
487.0
487.0
498.0
504.0
505.0
505.0
505.0
505.0
476.0
492.0
485.0
506.0
490.0
485.0
512.0
472.0
475.0
506.0
399.0
592.0
592.0
590.0
438.0
486.0
489.0
472.0
490.0
485.0
489.0
467.0
496.0
476.0
464.0
487.0
483.0
471.0
502.0
480.0
474.0
500.0
465.0
469.0
465.0
483.0
470.0
477.0
489.0
488.0
470.0
480.0
476.0
501.0
498.0
501.0
501.0
491.0
484.0
493.0
394.0
507.0
474.0
490.0
487.0
488.0
488.0
493.0
473.0
476.0
488.0
488.0
488.0
488.0
498.0
489.0
497.0
488.0
496.0
509.0
502.0
506.0
483.0
483.0
393.0
492.0
509.0
511.0
508.0
396.0
397.0
398.0
400.0
503.0
514.0
684.0
690.0
482.0
643.0
663.0
673.0
690.0
662.0
702.0
488.0
484.0
584.0
572.0
588.0
588.0
455.0
453.0
461.0
580.0
507.0
507.0
455.0
585.0
548.0
450.0
500.0
500.0
521.0
513.0
521.0
488.0
398.0
490.0
450.0
400.0
463.0
460.0
437.0
470.0
470.0
466.0
460.0
420.0
572.0
406.0
568.0
610.0
571.0
480.0
492.0
540.0
500.0
497.0
446.0
398.0
402.0
604.0
603.0
432.0
433.0
432.0
434.0
440.0
439.0
433.0
434.0
432.0
433.0
587.0
589.0
587.0
592.0
558.0
516.0
488.0
506.0
460.0
528.0
433.0
467.0
492.0
560.0
488.0
454.0
573.0
487.0
573.0
495.0
505.0
507.0
505.0
505.0
503.0
505.0
486.0
487.0
515.0
598.0
598.0
505.0
501.0
504.0
501.0
503.0
501.0
500.0
587.0
578.0
515.0
595.0
605.0
608.0
503.0
487.0
472.0
683.0
674.0
676.0
642.0
643.0
645.0
645.0
644.0
661.0
663.0
673.0
674.0
683.0
690.0
702.0
486.0
385.0
588.0
588.0
593.0
585.0
586.0
596.0
598.0
580.0
458.0
548.0
551.0
551.0
489.0
491.0
609.0
398.0
470.0
404.0
558.0
506.0
600.0
599.0
599.0
604.0
604.0
515.0
548.0
549.0
385.0
434.0
551.0
486.0
490.0
505.0
514.0
530.0
529.0
590.0
590.0
598.0
584.0
559.0
555.0
549.0
690.0
700.0
701.0
597.0
598.0
600.0
588.0
558.0
559.0
558.0
408.0
581.0
569.0
568.0
568.0
568.0
569.0
551.0
569.0
568.0
568.0
567.0
489.0
597.0
499.0
499.0
574.0
399.0
568.0
458.0
462.0
424.0
399.0
434.0
434.0
482.0
490.0
483.0
515.0
491.0
491.0
493.0
600.0
494.0
400.0
502.0
514.0
548.0
509.0
385.0
486.0
497.0
514.0
382.0
504.0
384.0
503.0
505.0
504.0
564.0
570.0
586.0
562.0
563.0
562.0
569.0
505.0
491.0
506.0
525.0
524.0
562.0
566.0
502.0
578.0
489.0
487.0
491.0
491.0
449.0
449.0
480.0
482.0
495.0
578.0
488.0
404.0
402.0
400.0
445.0
634.0
546.0
598.0
600.0
604.0
600.0
559.0
560.0
583.0
587.0
588.0
437.0
572.0
572.0
477.0
478.0
577.0
580.0
592.0
375.0
399.0
483.0
380.0
380.0
434.0
434.0
433.0
433.0
570.0
515.0
385.0
396.0
474.0
384.0
384.0
495.0
495.0
496.0
496.0
501.0
486.0
519.0
511.0
401.0
375.0
375.0
403.0
355.0
504.0
499.0
499.0
697.0
510.0
517.0
518.0
519.0
496.0
497.0
485.0
488.0
488.0
440.0
579.0
555.0
515.0
402.0
458.0
482.0
483.0
555.0
611.0
611.0
598.0
555.0
508.0
588.0
558.0
589.0
642.0
493.0
440.0
514.0
399.0
482.0
553.0
525.0
434.0
586.0
490.0
515.0
491.0
435.0
432.0
433.0
494.0
514.0
502.0
398.0
517.0
528.0
496.0
529.0
